132832
132828
132841
132855
132885
132920
132958
132962
132999
133034
133072
133073
133107
133134
133120
133166
133180
133206
133189
133227
133251
133255
133263
133283
133289
133252
133234
133122
132981
132840
132837
132876
132922
132931
132976
132957
133014
133023
133012
133020
133045
133086
133059
133113
133134
133155
133172
133197
133166
133187
133159
133077
132910
132829
132820
132860
132885
132919
132941
132965
132941
132972
132982
132989
133004
133018
133047
133028
133065
133079
133109
133123
133122
133151
133143
133121
133048
132943
132827
132832
132869
132891
132916
132910
132912
132951
132933
132959
132988
132980
133000
133022
133034
133024
133049
133056
133025
133002
132848
132835
132837
132875
132914
132913
132948
132971
132951
132959
132998
133018
132991
133026
133059
133034
133054
133092
133127
133105
133159
133180
133132
133060
132956
132828
132857
132902
132930
132921
132962
132981
132992
133038
133046
133025
133056
133092
133110
133111
133154
133154
133115
133044
132939
132872
132908
132959
133003
133008
133083
133124
133145
133167
133234
133285
133282
133328
133357
133388
133390
133499
133530
133596
133650
133701
133710
133780
133867
133895
133982
134059
134114
134104
134058
133938
133801
133673
133535
133399
133228
133153
133065
132959
132973
132991
132998
133061
133162
133227
133259
133356
133406
133447
133472
133559
133554
133606
133646
133677
133699
133732
133769
133734
133763
133758
133775
133758
133765
133779
133812
133858
133905
133893
133945
133978
133986
134011
134051
134105
134125
134192
134265
134319
134370
134443
134492
134504
134562
134595
134651
134656
134701
134719
134713
134750
134758
134774
134800
134828
134846
134876
134892
134940
134931
134980
134998
134996
134948
134848
134647
134469
134341
134244
134183
134126
134075
134081
134072
134101
134120
134172
134190
134228
134267
134314
134350
134408
134451
134447
134502
134508
134505
134524
134552
134588
134590
134587
134611
134620
134576
134557
134559
134511
134483
134506
134509
134490
134501
134526
134526
134556
134556
134604
134599
134648
134666
134718
134697
134728
134757
134768
134807
134836
134869
134863
134921
134946
134939
134975
135022
135036
135052
135095
135066
135105
135121
135101
135106
135084
135028
134855
134705
134590
134470
134390
134318
134242
134159
134158
134153
134174
134199
134245
134295
134301
134358
134418
134450
134451
134493
134523
134514
134536
134567
134585
134588
134615
134660
134644
134653
134653
134650
134597
134603
134599
134585
134571
134566
134596
134567
134570
134603
134593
134594
134618
134639
134646
134654
134675
134698
134676
134734
134763
134790
134823
134860
134915
134893
134952
134984
134992
135018
135020
135060
135025
135056
135032
135054
135051
135049
134979
134839
134695
134570
134485
134340
134269
134224
134158
134115
134099
134123
134084
134113
134194
134206
134272
134293
134316
134336
134357
134392
134378
134410
134430
134429
134463
134497
134523
134500
134516
134510
134494
134463
134468
134444
134432
134445
134474
134449
134482
134528
134516
134559
134576
134612
134618
134635
134688
134709
134720
134766
134828
134803
134859
134865
134870
134865
134890
134901
134932
134957
134972
135001
134982
135021
135015
134991
134923
134761
134628
134469
134369
134290
134185
134103
134059
134048
133996
134033
134046
134110
134130
134184
134237
134254
134306
134347
134380
134363
134400
134415
134406
134416
134453
134484
134487
134505
134505
134485
134442
134429
134413
134367
134373
134379
134377
134348
134374
134389
134378
134432
134489
134518
134586
134608
134656
134674
134733
134782
134788
134828
134875
134891
134876
134903
134933
134927
134915
134931
134894
134899
134899
134848
134859
134707
134362
134237
134096
134006
133931
133898
133804
133801
133799
133794
133816
133829
133880
133843
133902
133911
133930
133927
133950
133957
133943
133955
133985
134017
134000
134036
134057
134020
134051
134005
134014
134012
134020
133987
133998
134038
134047
134084
134135
134147
134195
134220
134211
134249
134293
134274
134304
134320
134317
134353
134438
134418
134469
134525
134531
134565
134576
134620
134573
134550
134473
134393
134274
134188
133976
133922
133865
133840
133792
133810
133824
133835
133858
133915
133965
133979
134055
134124
134202
134237
134292
134292
134322
134360
134391
134365
134377
134372
134336
134346
134345
134310
134315
134323
134318
134321
134356
134346
134345
134392
134420
134429
134481
134523
134566
134556
134615
134649
134695
134706
134764
134806
134815
134837
134875
134917
134896
134935
134967
134967
134965
134982
135015
134975
134917
134785
134654
134511
134398
134291
134159
134095
134035
134001
133952
133971
133982
134012
134054
134100
134151
134160
134227
134269
134287
134305
134334
134360
134336
134358
134370
134397
134418
134428
134415
134404
134406
134387
134342
134350
134355
134352
134354
134372
134411
134381
134424
134452
134500
134492
134533
134583
134595
134607
134670
134669
134713
134741
134791
134804
134834
134860
134900
134899
134972
134956
135003
135006
135044
135026
135056
135087
135091
135076
134949
134755
134480
134381
134257
134125
134042
134012
134031
134010
134033
134091
134094
134120
134168
134220
134230
134294
134345
134369
134389
134422
134443
134473
134489
134497
134540
134495
134504
134519
134470
134448
134426
134464
134414
134436
134455
134451
134467
134496
134469
134519
134545
134579
134581
134617
134653
134679
134707
134745
134804
134790
134828
134883
134885
134916
134937
134985
134944
134985
135001
135002
135003
135030
134993
135052
135056
135082
135123
135111
135117
135126
135061
134879
134720
134579
134423
134289
134099
133979
133949
133939
133896
133935
133977
134052
134075
134146
134136
134158
134200
134194
134212
134222
134270
134227
134272
134302
134299
134296
134300
134299
134256
134260
134242
134216
134186
134195
134202
134196
134212
134247
134243
134265
134297
134311
134337
134361
134414
134425
134457
134503
134538
134578
134605
134603
134628
134635
134678
134685
134711
134697
134722
134741
134748
134733
134773
134770
134814
134828
134823
134825
134869
134865
134884
134922
134961
134952
134946
134901
134789
134611
134467
134336
134170
134087
134003
133915
133821
133820
133809
133809
133853
133907
133906
133975
134019
134051
134121
134153
134171
134196
134220
134251
134239
134283
134293
134274
134263
134254
134244
134183
134181
134152
134123
134079
134091
134096
134065
134083
134089
134125
134109
134134
134182
134191
134223
134270
134320
134285
134348
134376
134407
134440
134525
134545
134572
134577
134563
134608
134556
134551
134562
134573
134558
134580
134579
134591
134564
134576
134590
134569
134585
134601
134601
134580
134627
134629
134594
134522
134404
134285
134114
133997
133894
133755
133674
133611
133497
133482
133499
133512
133547
133604
133630
133680
133688
133760
133767
133818
133874
133905
133961
133997
133988
134022
134015
134001
133971
133952
133885
133845
133841
133841
133854
133851
133879
133899
133951
133962
134001
134035
134051
134103
134143
134150
134192
134236
134273
134278
134297
134341
134343
134377
134391
134418
134427
134456
134457
134452
134484
134507
134526
134502
134549
134562
134572
134568
134608
134640
134639
134647
134662
134696
134645
134550
134409
134255
134116
133983
133869
133707
133639
133565
133471
133424
133407
133402
133391
133428
133474
133542
133548
133599
133639
133651
133710
133754
133787
133788
133841
133865
133873
133886
133917
133929
133914
133917
133916
133905
133876
133864
133875
133856
133851
133852
133892
133869
133915
133929
133937
133982
134010
134054
134060
134112
134106
134136
134131
134179
134159
134200
134233
134267
134267
134306
134335
134342
134368
134384
134403
134377
134413
134427
134420
134434
134436
134480
134441
134483
134514
134510
134580
134554
134548
134486
134354
134171
134029
133902
133737
133529
133443
133358
133336
133317
133298
133311
133342
133395
133482
133533
133575
133607
133653
133694
133724
133778
133836
133837
133875
133917
133906
133918
133942
133929
133882
133887
133859
133836
133836
133825
133833
133804
133845
133909
133894
133963
133981
134021
134016
134053
134040
134063
134092
134130
134169
134221
134274
134287
134303
134288
134338
134356
134356
134363
134372
134372
134400
134424
134418
134446
134453
134517
134500
134546
134569
134609
134574
134530
134464
134300
134168
134022
133904
133740
133634
133554
133470
133419
133391
133392
133384
133433
133508
133571
133635
133692
133713
133778
133805
133864
133862
133923
133954
133968
134023
134048
134068
134062
134062
134030
134018
134022
133996
133956
133967
133992
133968
133982
133992
134023
134002
134055
134086
134139
134198
134228
134262
134307
134365
134410
134439
134504
134584
134653
134691
134751
134792
134793
134839
134896
134884
134918
134945
134963
134957
134975
134991
134990
134988
135009
135024
135031
135045
135073
135099
135080
135100
135109
134975
134654
134534
134360
134253
134131
134003
133906
133837
133814
133778
133785
133796
133846
133874
133930
133986
134026
134052
134081
134108
134104
134129
134147
134179
134218
134247
134196
134213
134202
134153
134096
134067
134037
133996
133976
133969
133974
133953
133979
134012
133995
134050
134080
134115
134102
134149
134188
134219
134247
134336
134346
134393
134477
134490
134515
134560
134564
134586
134606
134636
134694
134678
134703
134717
134764
134723
134758
134801
134805
134811
134800
134758
134603
134500
134364
134233
134083
133970
133878
133759
133712
133679
133630
133673
133727
133740
133783
133865
133902
133942
134007
134194
134266
134304
134379
134374
134411
134446
134474
134461
134446
134456
134418
134404
134388
134365
134327
134336
134326
134301
134301
134346
134363
134415
134452
134478
134503
134560
134599
134588
134646
134681
134698
134720
134740
134800
134786
134809
134828
134852
134840
134873
134885
134902
134912
134934
134945
134964
134980
134996
135030
135063
135050
135085
135101
135091
134987
134862
134736
134571
134452
134317
134181
134078
134007
133956
133882
133870
133870
133913
133909
133960
134021
134048
134066
134118
134184
134177
134198
134233
134267
134270
134320
134366
134343
134387
134392
134416
134374
134387
134396
134360
134364
134378
134378
134348
134341
134369
134359
134352
134394
134423
134412
134463
134480
134533
134542
134581
134639
134647
134703
134731
134795
134768
134823
134869
134875
134887
134926
134947
134950
134974
135005
135001
135042
135049
135066
135085
135130
135105
135137
135178
135150
135199
135218
135208
135125
135016
134891
134706
134588
134461
134349
134192
134124
134070
134013
133984
133962
134021
134016
134056
134097
134145
134176
134209
134264
134300
134312
134332
134358
134365
134385
134428
134438
134463
134450
134469
134416
134418
134407
134366
134336
134324
134271
134281
134273
134285
134270
134292
134313
134300
134320
134355
134372
134371
134406
134462
134472
134492
134533
134576
134557
134616
134667
134696
134736
134776
134783
134796
134821
134868
134846
134860
134886
134847
134876
134872
134891
134858
134894
134927
134936
134977
135002
135002
135028
135035
135021
134936
134833
134704
134416
134262
134162
134033
133958
133901
133831
133839
133824
133854
133873
133938
133981
134019
134072
134113
134168
134239
134254
134273
134279
134327
134346
134371
134387
134393
134377
134344
134330
134354
134309
134291
134281
134296
134244
134255
134260
134282
134298
134341
134344
134403
134431
134473
134480
134524
134561
134551
134603
134606
134655
134651
134698
134746
134778
134782
134819
134799
134850
134887
134879
134880
134917
134943
134920
134946
134942
134953
134967
134971
134996
135012
135044
135063
135103
135073
135107
135108
135003
134881
134748
134619
134454
134234
134101
133985
133956
133909
133934
133953
133983
134016
134073
134121
134143
134195
134255
134264
134304
134336
134357
134392
134419
134456
134437
134447
134433
134421
134378
134356
134351
134288
134288
134276
134280
134294
134299
134345
134386
134394
134456
134498
134526
134564
134681
134686
134746
134790
134811
134821
134860
134903
134879
134922
134950
134956
134991
135020
135019
135051
135069
135064
135075
135093
135131
135138
135151
135129
135157
135203
135201
135228
135251
135157
135033
134751
134576
134466
134342
134198
134114
134043
134018
133953
133964
134007
134077
134137
134190
134208
134268
134329
134354
134383
134429
134438
134442
134478
134493
134529
134550
134554
134512
134517
134491
134475
134446
134445
134436
134405
134403
134421
134406
134426
134462
134484
134525
134574
134636
134647
134698
134748
134775
134785
134865
134890
134939
134974
135018
135019
135040
135078
135081
135086
135123
135156
135145
135153
135168
135160
135148
135151
135198
135179
135204
135232
135227
135231
135263
135288
135295
135309
135340
135368
135314
135210
135017
134875
134760
134663
134525
134420
134347
134289
134222
134223
134211
134211
134236
134280
134320
134350
134402
134456
134483
134580
134638
134627
134660
134708
134701
134758
134761
134763
134743
134733
134728
134713
134690
134662
134661
134630
134610
134618
134631
134600
134644
134641
134664
134688
134720
134745
134733
134796
134854
134867
134920
134978
135042
135036
135086
135175
135196
135233
135271
135287
135302
135336
135355
135327
135367
135395
135385
135408
135434
135423
135458
135424
135440
135468
135431
135466
135496
135515
135536
135533
135478
135295
135131
134966
134848
134674
134595
134480
134388
134310
134276
134278
134247
134276
134322
134346
134394
134444
134510
134496
134572
134587
134612
134641
134668
134672
134712
134716
134754
134716
134728
134690
134676
134655
134642
134578
134599
134575
134583
134568
134589
134625
134620
134645
134678
134722
134738
134780
134836
134898
134924
134975
134990
135027
135096
135135
135166
135192
135182
135211
135251
135250
135281
135270
135267
135286
135289
135321
135295
135343
135361
135369
135394
135418
135451
135429
135449
135434
135385
135238
135056
134919
134748
134618
134519
134435
134344
134282
134257
134217
134225
134258
134313
134353
134402
134448
134481
134496
134560
134560
134610
134638
134665
134688
134749
134784
134749
134744
134729
134698
134655
134623
134597
134555
134521
134507
134496
134481
134486
134511
134495
134498
134529
134564
134687
134724
134738
134785
134833
134836
134899
134924
134952
134961
135004
135032
135044
135077
135103
135129
135120
135166
135184
135164
135156
135168
135214
135175
135239
135276
135276
135292
135296
135240
135031
134890
134725
134612
134493
134361
134259
134170
134125
134051
134034
134056
134103
134160
134166
134236
134273
134309
134315
134382
134370
134438
134478
134496
134530
134544
134519
134492
134479
134474
134413
134402
134348
134337
134332
134340
134304
134365
134395
134398
134431
134439
134447
134475
134486
134515
134580
134607
134621
134649
134725
134712
134775
134797
134800
134812
134812
134855
134821
134868
134877
134888
134887
134918
134942
134948
134971
134989
135016
135001
135049
135045
135013
134908
134799
134668
134519
134373
134269
134154
134044
133966
133917
133855
133845
133864
133874
133923
133972
134000
134041
134124
134160
134140
134209
134243
134246
134271
134284
134328
134301
134338
134345
134332
134323
134308
134302
134270
134252
134233
134242
134192
134209
134236
134254
134265
134310
134289
134318
134355
134375
134404
134449
134518
134504
134545
134568
134587
134574
134605
134622
134621
134648
134659
134692
134669
134704
134744
134732
134739
134755
134795
134795
134809
134824
134816
134845
134844
134866
134898
134922
134945
134914
134866
134751
134627
134342
134226
134048
133960
133906
133803
133767
133752
133754
133717
133761
133808
133863
133880
133919
133985
133994
134016
134043
134059
134046
134081
134110
134128
134145
134181
134136
134164
134134
134118
134101
134088
134074
134036
134051
134052
134085
134080
134091
134139
134151
134183
134232
134234
134279
134322
134320
134387
134436
134409
134468
134513
134531
134611
134640
134634
134651
134677
134691
134674
134711
134741
134716
134748
134751
134753
134784
134802
134800
134814
134850
134869
134860
134873
134857
134656
134541
134247
134131
133944
133855
133800
133775
133747
133763
133805
133828
133932
133960
134002
134030
134081
134062
134098
134134
134157
134166
134194
134243
134233
134215
134197
134164
134140
134117
134081
134067
134040
134050
134009
134033
134066
134062
134055
134085
134148
134207
134226
134272
134278
134319
134347
134352
134404
134436
134470
134476
134517
134550
134528
134569
134578
134585
134609
134624
134640
134664
134679
134706
134712
134713
134745
134708
134619
134500
134361
134258
134085
133946
133850
133673
133611
133582
133514
133520
133572
133600
133617
133681
133742
133777
133813
133869
133898
133938
133980
134002
134030
134064
134099
134053
134069
134080
134045
134033
134014
133985
133988
133987
133980
133995
134000
134023
134013
134073
134082
134110
134122
134186
134221
134231
134255
134324
134377
134372
134430
134498
134496
134526
134551
134595
134602
134684
134709
134729
134754
134787
134783
134796
134808
134832
134805
134863
134875
134861
134899
134939
134878
134814
134687
134554
134415
134285
134138
134053
133970
133921
133838
133846
133861
133864
133933
133975
134027
134035
134113
134184
134190
134215
134243
134275
134251
134299
134324
134306
134342
134365
134330
134329
134287
134290
134240
134236
134194
134212
134222
134194
134250
134259
134262
134319
134370
134356
134437
134480
134500
134515
134568
134606
134605
134642
134696
134720
134724
134793
134804
134832
134880
134866
134917
134914
134945
134932
134958
134976
134967
134980
135004
135038
135039
135074
135093
135087
135055
134953
134859
134694
134569
134324
134175
134088
134019
133943
133914
133914
133921
133944
133997
134049
134090
134111
134176
134233
134290
134306
134307
134320
134333
134380
134370
134416
134436
134432
134444
134451
134434
134422
134420
134424
134399
134429
134442
134439
134480
134492
134532
134538
134570
134651
134695
134769
134817
134844
134879
134938
135008
135073
135137
135157
135225
135280
135319
135334
135381
135401
135414
135427
135416
135450
135470
135475
135461
135469
135439
135423
135382
135363
135331
135323
135266
135278
135266
135229
135194
135117
135057
134966
134902
134831
134730
134675
134621
134621
134559
134585
134608
134637
134630
134668
134715
134698
134739
134763
134812
134809
134860
134883
134922
134946
134975
135009
134976
134981
134963
134939
134919
134892
134872
134823
134818
134806
134805
134786
134827
134850
134840
134897
134932
134927
134963
135003
134999
135097
135121
135145
135169
135211
135211
135211
135243
135238
135213
135237
135236
135226
135212
135228
135229
135225
135238
135290
135267
135312
135316
135295
135240
135174
135034
134907
134804
134654
134545
134449
134400
134287
134281
134258
134228
134207
134235
134288
134291
134381
134444
134472
134511
134554
134566
134596
134620
134642
134622
134673
134691
134706
134736
134742
134711
134705
134720
134708
134684
134699
134654
134681
134694
134731
134729
134750
134812
134848
134871
134924
134920
134962
134969
134981
135009
135037
135076
135048
135111
135149
135167
135162
135199
135179
135209
135213
135248
135213
135244
135281
135267
135275
135289
135281
135253
135190
135077
134942
134797
134672
134564
134412
134332
134274
134188
134156
134154
134171
134133
134195
134283
134301
134361
134422
134421
134458
134497
134531
134531
134558
134595
134581
134618
134631
134645
134649
134648
134673
134633
134638
134620
134624
134568
134585
134597
134616
134599
134634
134664
134673
134705
134742
134782
134757
134824
134880
134892
134918
134964
134998
135019
135061
135093
135111
135148
135165
135191
135179
135242
135236
135276
135295
135330
135316
135349
135380
135400
135385
135415
135446
135436
135403
135352
135245
135067
134827
134685
134484
134424
134355
134330
134345
134358
134383
134439
134481
134507
134581
134603
134604
134665
134705
134700
134731
134763
134801
134782
134820
134862
134830
134830
134832
134844
134780
134783
134758
134749
134731
134765
134732
134760
134752
134779
134781
134828
134842
134862
134901
134954
134986
135041
135050
135081
135117
135139
135123
135177
135207
135212
135229
135249
135294
135248
135296
135321
135313
135412
135392
135432
135466
135452
135484
135453
135374
135251
135135
135012
134873
134780
134717
134563
134522
134530
134513
134539
134583
134601
134627
134675
134726
134746
134798
134836
134892
134890
134920
134959
134958
134982
135031
135054
135050
135044
135053
135031
134993
135015
134995
134967
134954
134940
134951
134998
134996
135017
135038
135085
135139
135167
135184
135184
135204
135263
135258
135291
135293
135341
135335
135373
135400
135389
135414
135444
135447
135442
135470
135491
135477
135483
135495
135535
135517
135549
135596
135593
135596
135601
135604
135488
135389
135280
135052
134975
134929
134834
134786
134776
134777
134758
134780
134828
134841
134875
134926
134972
134987
135038
135070
135121
135120
135169
135203
135225
135252
135288
135311
135271
135282
135252
135207
135192
135192
135172
135121
135128
135123
135108
135118
135144
135165
135155
135179
135216
135259
135254
135291
135325
135324
135357
135377
135426
135406
135447
135493
135484
135522
135543
135572
135545
135587
135618
135610
135606
135644
135654
135637
135681
135708
135724
135709
135664
135540
135295
135207
135068
135009
134941
134861
134846
134810
134816
134795
134852
134865
134885
134906
134947
135006
135032
135054
135106
135109
135128
135158
135179
135201
135218
135228
135252
135218
135240
135221
135179
135195
135168
135176
135127
135154
135149
135130
135161
135163
135161
135228
135283
135294
135324
135370
135352
135406
135426
135489
135450
135502
135562
135587
135614
135580
135613
135644
135636
135659
135665
135664
135709
135741
135720
135741
135667
135576
135464
135345
135196
135087
134992
134883
134786
134733
134704
134642
134648
134673
134691
134704
134765
134810
134820
134849
134881
134935
134949
134965
134979
134974
134999
135011
135042
135034
135040
135040
135032
135004
134993
134932
134937
134922
134928
134904
134922
134935
134927
134958
134988
135004
135030
135031
135075
135105
135119
135175
135191
135205
135245
135279
135305
135341
135380
135353
135382
135404
135413
135431
135458
135484
135502
135508
135523
135504
135533
135558
135539
135550
135545
135538
135437
135352
135230
135075
134837
134729
134622
134558
134511
134449
134425
134448
134425
134465
134519
134539
134564
134605
134636
134629
134667
134674
134714
134699
134732
134774
134776
134793
134798
134807
134762
134773
134742
134724
134737
134733
134697
134721
134714
134727
134726
134792
134817
134818
134865
134884
134924
134938
134988
135027
135048
135086
135104
135153
135142
135181
135215
135210
135221
135253
135282
135299
135316
135338
135340
135372
135391
135373
135393
135391
135405
135414
135456
135447
135481
135483
135511
135539
135509
135493
135428
135311
135053
134919
134770
134692
134608
134516
134463
134424
134401
134434
134475
134529
134558
134615
134683
134715
134735
134766
134759
134793
134811
134830
134839
134860
134881
134849
134856
134820
134790
134816
134758
134757
134753
134758
134745
134780
134804
134812
134844
134877
134909
134933
134988
135028
135020
135070
135098
135142
135142
135161
135210
135197
135224
135248
135294
135287
135323
135341
135361
135369
135369
135370
135410
135403
135435
135424
135459
135470
135499
135518
135557
135539
135551
135581
135578
135547
135463
135362
135204
135091
134968
134865
134761
134692
134652
134581
134587
134563
134589
134609
134663
134739
134763
134859
134913
134915
134974
135005
135011
135017
135077
135102
135098
135118
135105
135107
135057
135042
135027
134986
134966
134967
134960
134948
134952
134956
134964
135011
135048
135048
135100
135157
135181
135198
135216
135271
135279
135346
135391
135382
135430
135470
135455
135490
135505
135529
135503
135530
135553
135539
135534
135566
135586
135563
135580
135614
135613
135650
135667
135656
135718
135700
135655
135557
135459
135307
135173
135049
134947
134804
134616
134581
134618
134645
134730
134795
134809
134850
134907
134946
134943
134973
134990
135014
135013
135035
135069
135062
135077
135080
135079
135049
135061
135055
135011
134975
134976
134954
134913
134932
134964
134955
134981
135019
135058
135043
135104
135117
135164
135174
135210
135235
135279
135321
135356
135366
135410
135443
135450
135482
135531
135503
135537
135560
135575
135588
135612
135615
135612
135656
135653
135664
135695
135721
135720
135736
135698
135620
135487
135374
135224
135079
134966
134820
134739
134645
134584
134508
134516
134560
134596
134628
134682
134712
134748
134794
134808
134843
134875
134885
134861
134891
134928
134906
134932
134928
134953
134904
134916
134901
134874
134861
134853
134869
134828
134841
134848
134835
134862
134904
134907
134941
134957
134992
135009
135050
135104
135113
135156
135162
135214
135230
135268
135304
135309
135344
135347
135376
135405
135428
135422
135428
135460
135488
135441
135459
135481
135491
135496
135519
135545
135520
135582
135616
135638
135680
135705
135658
135638
135520
135411
135241
134988
134837
134750
134660
134611
134535
134524
134539
134528
134564
134621
134667
134680
134752
134785
134813
134849
134891
134918
134901
134923
134956
134972
134969
135005
135014
134993
134987
134974
134955
134911
134908
134903
134881
134873
134892
134925
134903
134928
134946
134970
135014
135053
135048
135113
135151
135173
135226
135275
135243
135303
135330
135354
135346
135375
135407
135395
135411
135458
135441
135457
135466
135454
135474
135491
135503
135466
135500
135521
135519
135541
135565
135598
135599
135629
135650
135659
135629
135565
135426
135294
135170
135057
134911
134817
134742
134680
134635
134606
134625
134619
134666
134724
134725
134787
134835
134882
134948
134974
134986
135018
135051
135089
135061
135096
135110
135122
135085
135063
135004
135006
134973
134962
134942
134936
134948
134908
134951
134954
134977
134978
135018
135048
135054
135110
135123
135167
135175
135225
135245
135271
135288
135342
135371
135407
135456
135434
135440
135484
135497
135490
135530
135563
135574
135559
135575
135601
135571
135603
135607
135632
135657
135681
135662
135617
135522
135406
135235
135116
135001
134870
134765
134681
134640
134556
134543
134547
134572
134592
134638
134700
134721
134747
134803
134844
134871
134899
134948
134949
134968
134990
135042
135030
135064
135053
135030
135026
134992
134981
134933
134927
134905
134905
134903
134925
134939
134965
134980
135017
135054
135102
135096
135171
135202
135214
135251
135337
135312
135368
135391
135417
135447
135479
135451
135470
135493
135528
135482
135527
135522
135515
135543
135547
135571
135558
135608
135631
135631
135684
135686
135628
135455
135293
135143
134750
134671
134595
134537
134493
134485
134496
134502
134545
134606
134655
134670
134705
134783
134783
134856
134865
134870
134917
134909
134931
134946
134918
134934
134917
134881
134884
134879
134832
134822
134817
134803
134833
134840
134885
134932
134996
135063
135111
135118
135149
135146
135163
135182
135175
135201
135219
135244
135222
135264
135271
135273
135293
135348
135317
135355
135376
135371
135398
135413
135448
135430
135460
135462
135428
135364
135264
135114
134996
134713
134591
134502
134409
134286
134271
134294
134353
134383
134415
134459
134515
134557
134534
134602
134616
134619
134635
134675
134705
134680
134718
134736
134735
134703
134699
134691
134661
134660
134641
134610
134606
134597
134612
134598
134641
134663
134676
134678
134749
134763
134804
134833
134865
134888
134915
134950
134980
134993
135044
135081
135087
135119
135132
135141
135124
135107
135115
135088
135092
135112
135094
135096
135120
135110
135139
135176
135185
135184
135186
135227
135180
135062
134920
134790
134654
134520
134304
134214
134155
134103
134091
134124
134125
134177
134230
134273
134298
134354
134404
134431
134440
134470
134517
134540
134536
134536
134566
134571
134591
134542
134538
134525
134510
134461
134453
134428
134445
134442
134461
134432
134467
134519
134555
134593
134633
134643
134699
134742
134766
134811
134865
134864
134944
134961
134972
135021
135049
135059
135086
135101
135103
135123
135137
135139
135164
135200
135198
135215
135215
135243
135274
135241
135264
135303
135293
135277
135226
135143
134986
134872
134742
134618
134490
134429
134381
134301
134279
134290
134283
134350
134404
134424
134467
134548
134548
134597
134621
134631
134644
134682
134708
134705
134744
134739
134675
134681
134601
134581
134576
134547
134540
134609
134574
134622
134649
134672
134693
134720
134778
134816
134854
134893
134911
134955
134987
135014
135035
135071
135043
135052
135085
135089
135097
135114
135124
135108
135126
135156
135151
135155
135173
135212
135193
135227
135244
135255
135271
135273
135304
135296
135309
135267
135031
134923
134791
134619
134538
134453
134348
134309
134292
134288
134260
134294
134323
134348
134403
134467
134517
134488
134560
134572
134558
134563
134599
134642
134633
134659
134657
134642
134629
134605
134605
134552
134536
134525
134480
134450
134479
134459
134466
134476
134512
134523
134597
134603
134649
134663
134713
134698
134750
134787
134789
134845
134897
134881
134915
134963
134948
134973
135009
135032
135019
135064
135081
135103
135088
135104
135141
135107
135124
135134
135147
135154
135214
135208
135209
135232
135266
135276
135306
135355
135345
135363
135333
135245
135107
134820
134649
134346
134224
134173
134138
134145
134194
134254
134388
134428
134515
134575
134536
134619
134651
134702
134697
134735
134745
134730
134737
134722
134687
134683
134688
134677
134667
134704
134695
134745
134802
134854
134864
134903
134945
134942
134980
135016
135045
135059
135104
135152
135175
135195
135239
135234
135279
135300
135316
135335
135377
135393
135368
135401
135416
135420
135455
135466
135493
135477
135514
135533
135526
135549
135596
135604
135583
135625
135638
135657
135687
135709
135724
135750
135796
135777
135786
135753
135654
135466
135333
135194
135042
134916
134813
134712
134625
134595
134585
134561
134583
134618
134672
134689
134776
134815
134846
134872
134930
134902
134925
134958
134962
134994
135026
135031
135009
135031
135009
134969
134950
134919
134903
134868
134877
134843
134857
134866
134891
134933
134957
134973
135001
135061
135099
135095
135133
135187
135186
135212
135262
135299
135299
135324
135350
135346
135396
135403
135436
135475
135463
135486
135492
135500
135498
135522
135538
135536
135564
135575
135589
135580
135591
135620
135619
135644
135675
135684
135682
135769
135724
135704
135596
135481
135331
135194
134917
134828
134746
134681
134611
134626
134601
134601
134623
134673
134723
134745
134793
134827
134842
134868
134891
134928
134911
134947
134991
135007
135020
135018
135034
135008
134991
134960
134921
134861
134874
134879
134866
134897
134922
134931
134986
135019
135030
135071
135097
135149
135201
135241
135236
135270
135286
135310
135351
135381
135382
135394
135424
135450
135433
135458
135489
135493
135485
135518
135499
135522
135537
135539
135556
135576
135620
135617
135663
135690
135718
135727
135687
135471
135157
135031
134793
134682
134629
134533
134533
134524
134556
134612
134659
134660
134752
134788
134810
134835
134867
134897
134888
134909
134927
134961
134980
135003
135011
134982
134973
134964
134946
134909
134911
134902
134847
134877
134894
134878
134856
134878
134912
134901
134939
134968
134983
135016
135066
135115
135110
135142
135182
135208
135230
135254
135302
135361
135355
135392
135410
135441
135430
135452
135465
135489
135456
135487
135510
135489
135497
135513
135539
135530
135545
135577
135555
135602
135629
135656
135660
135691
135720
135642
135568
135433
135311
135134
135001
134891
134741
134680
134620
134566
134513
134524
134570
134609
134657
134710
134734
134793
134840
134847
134882
134916
134912
134939
134949
134981
134994
135012
134982
134978
134953
134956
134896
134931
134895
134897
134881
134868
134892
134863
134893
134920
134935
134978
135011
135032
135071
135125
135141
135167
135229
135263
135245
135300
135328
135361
135360
135392
135433
135414
135462
135460
135491
135493
135522
135544
135502
135535
135550
135533
135535
135540
135593
135560
135594
135625
135648
135659
135691
135711
135716
135714
135651
135517
135372
135239
135134
134958
134867
134723
134672
134647
134603
134640
134671
134745
134804
134864
134889
134923
134984
134990
135002
135040
135074
135066
135110
135148
135120
135080
135066
135015
134992
135010
134970
134942
134940
134962
134911
134945
134969
134989
134997
135034
135075
135050
135073
135115
135163
135170
135216
135254
135249
135298
135336
135383
135395
135429
135417
135436
135463
135477
135491
135515
135491
135514
135548
135543
135564
135597
135605
135600
135614
135617
135584
135522
135420
135324
135155
135047
134926
134803
134718
134642
134603
134545
134564
134583
134590
134612
134654
134732
134749
134796
134867
134861
134895
134930
134970
134954
135006
135022
135043
135056
135102
135082
135037
135035
135026
134949
134954
134948
134919
134905
134918
134935
134940
134998
135051
135078
135127
135170
135186
135238
135256
135289
135306
135365
135368
135403
135430
135462
135471
135469
135497
135508
135503
135519
135526
135535
135520
135552
135561
135541
135578
135605
135617
135608
135634
135623
135499
135397
135253
135101
134951
134831
134752
134608
134559
134450
134424
134452
134470
134477
134525
134573
134599
134636
134687
134705
134695
134756
134772
134771
134770
134802
134835
134834
134845
134814
134845
134775
134765
134786
134764
134756
134748
134736
134776
134786
134804
134847
134919
134935
134976
135003
135018
135035
135067
135112
135109
135151
135191
135191
135223
135254
135273
135266
135276
135313
135289
135312
135334
135332
135330
135351
135377
135344
135398
135400
135417
135430
135454
135489
135469
135441
135368
135205
135085
134942
134829
134671
134598
134501
134427
134388
134366
134375
134369
134408
134458
134481
134515
134561
134612
134599
134638
134659
134661
134672
134688
134714
134720
134742
134756
134757
134734
134736
134690
134689
134700
134655
134658
134642
134651
134632
134690
134706
134704
134756
134776
134805
134828
134862
134905
134962
135005
135002
135041
135062
135106
135095
135132
135177
135157
135180
135198
135220
135235
135220
135287
135271
135299
135300
135292
135313
135341
135307
135341
135374
135371
135396
135427
135447
135420
135464
135488
135405
135211
135066
134909
134793
134691
134605
134523
134485
134450
134402
134436
134453
134460
134508
134534
134592
134609
134661
134712
134685
134729
134740
134741
134747
134769
134806
134787
134798
134836
134801
134759
134753
134756
134697
134707
134684
134689
134680
134681
134694
134711
134732
134757
134767
134815
134847
134845
134881
134933
134946
134985
135001
135035
135040
135084
135092
135102
135123
135151
135163
135171
135193
135224
135192
135213
135237
135226
135245
135261
135301
135270
135314
135324
135326
135334
135367
135381
135364
135371
135325
135216
135112
135005
134881
134725
134635
134573
134487
134451
134423
134400
134450
134474
134535
134570
134615
134637
134674
134708
134706
134741
134774
134785
134804
134827
134853
134807
134824
134820
134756
134752
134706
134693
134686
134687
134684
134738
134743
134748
134781
134822
134813
134859
134882
134930
134929
134963
134998
135004
135051
135099
135086
135113
135153
135169
135166
135208
135245
135222
135252
135256
135270
135251
135278
135303
135276
135295
135315
135334
135333
135366
135397
135405
135431
135456
135487
135479
135469
135443
135312
135193
135053
134921
134766
134647
134556
134434
134419
134364
134333
134343
134359
134365
134391
134438
134485
134524
134564
134589
134615
134627
134642
134672
134651
134651
134711
134719
134710
134720
134740
134680
134694
134678
134657
134630
134618
134617
134609
134612
134637
134638
134658
134681
134721
134731
134777
134818
134816
134847
134884
134919
134944
134975
135018
135019
135054
135096
135131
135134
135166
135213
135178
135225
135240
135229
135257
135274
135285
135255
135297
135302
135295
135320
135331
135366
135348
135378
135410
135402
135428
135469
135474
135504
135510
135506
135400
135302
135199
135030
134897
134761
134669
134530
134490
134454
134384
134385
134407
134405
134434
134478
134536
134547
134653
134671
134694
134714
134743
134729
134782
134783
134823
134796
134818
134790
134788
134794
134758
134734
134727
134725
134688
134716
134713
134711
134743
134783
134785
134801
134829
134867
134869
134951
134971
135000
135046
135093
135117
135171
135197
135210
135243
135239
135267
135293
135280
135330
135342
135347
135347
135362
135406
135400
135388
135412
135440
135414
135442
135458
135503
135529
135555
135569
135602
135625
135561
135527
135391
135254
135115
134992
134882
134743
134679
134567
134554
134554
134565
134591
134632
134697
134713
134777
134864
134903
134912
134965
134978
134973
135015
135039
135032
134986
135005
134985
134941
134940
134927
134893
134871
134868
134882
134847
134870
134920
134913
134937
134987
135020
135024
135087
135125
135118
135183
135232
135254
135275
135311
135358
135355
135390
135433
135424
135435
135463
135480
135476
135485
135494
135491
135505
135533
135545
135553
135543
135600
135573
135602
135617
135619
135645
135654
135686
135665
135574
135442
135300
135160
135036
134795
134727
